# PSW_HIPE
# energy
# PSW from HIPE. Includes RSRF and beam efficiency. Corrected for extended emission
       1666666.0   8.3058697e-05
       1669449.0   6.4706022e-05
       1672240.0   4.6258785e-05
       1674761.0   2.6903100e-05
       1677570.0   4.2133464e-06
       1680389.0  -1.8823342e-05
       1691474.0  -1.0099931e-05
       1694340.0   1.8458226e-05
       1697216.0   4.8071889e-05
       1699813.0   7.8558858e-05
       1702707.0   0.00010918437
       1705611.0   0.00011176774
       1708525.0   0.00011155547
       1711449.0   0.00011462130
       1714089.0   0.00012341844
       1717032.0   0.00013274320
       1719986.0   0.00016294182
       1722949.0   0.00019969084
       1725625.0   0.00022281263
       1728608.0   0.00018915494
       1731601.0   0.00015446312
       1734605.0   0.00011598577
       1737619.0   7.4574004e-05
       1740341.0   3.4668915e-05
       1743375.0   3.2452807e-05
       1746419.0   3.0937268e-05
       1749475.0   3.8271630e-05
       1752541.0   5.6026317e-05
       1755309.0   7.3444059e-05
       1758396.0   6.2363289e-05
       1761493.0   4.6967412e-05
       1764602.0   3.3107532e-05
       1767408.0   2.2971437e-05
       1770538.0   1.3795812e-05
       1773678.0   6.3282897e-05
       1776830.0   0.00013539575
       1779992.0   0.00019935635
       1782848.0   0.00021928350
       1786033.0   0.00023766463
       1789228.0   0.00018574805
       1792435.0   8.2085466e-05
       1795654.0  -2.0739826e-05
       1798561.0  -2.3155867e-05
       1801801.0  -2.2055881e-05
       1805054.0   4.1732704e-05
       1808318.0   0.00018839928
       1811266.0   0.00033532919
       1814552.0   0.00037805514
       1817851.0   0.00040031024
       1821161.0   0.00039021043
       1824484.0   0.00029853207
       1827485.0   0.00020616913
       1830831.0   0.00019940178
       1834189.0   0.00023140325
       1837559.0   0.00026882157
       1840942.0   0.00033180834
       1843997.0   0.00039548276
       1847404.0   0.00046632813
       1850823.0   0.00054291562
       1854255.0   0.00062242232
       1857355.0   0.00073418655
       1860811.0   0.00084896859
       1864280.0   0.00090336372
       1867762.0   0.00087431610
       1871257.0   0.00084551662
       1874414.0   0.00080336937
       1877934.0   0.00075791501
       1881467.0   0.00074139915
       1885014.0   0.00080705936
       1888574.0   0.00087519115
       1891789.0   0.00093664819
       1895375.0   0.00099564065
       1898974.0    0.0010461531
       1902587.0    0.0010324831
       1905850.0    0.0010162804
       1909490.0   0.00097880318
       1913143.0   0.00092208380
       1916810.0   0.00086969563
       1920491.0   0.00096055029
       1923816.0    0.0010601794
       1927525.0    0.0011828152
       1931247.0    0.0013439276
       1934984.0    0.0015066232
       1938360.0    0.0016128923
       1942124.0    0.0017041142
       1945903.0    0.0018055426
       1949697.0    0.0019595013
       1953506.0    0.0021221922
       1956947.0    0.0023643459
       1960784.0    0.0026574740
       1964636.0    0.0029441198
       1968503.0    0.0031308184
       1972386.0    0.0033190051
       1975894.0    0.0035523197
       1979805.0    0.0038397559
       1983733.0    0.0041361494
       1987676.0    0.0046137177
       1991238.0    0.0051119730
       1995211.0    0.0056572386
       1999200.0    0.0062869884
       2003205.0    0.0069353787
       2007226.0    0.0078516566
       2010858.0    0.0088564821
       2014910.0    0.0099596340
       2018978.0     0.011404590
       2023062.0     0.012915737
       2027163.0     0.014655383
       2030869.0     0.016467594
       2035002.0     0.018374213
       2039151.0     0.021341067
       2043318.0     0.024369154
       2047082.0     0.027734234
       2051282.0     0.031647405
       2055498.0     0.035728090
       2059732.0     0.041288063
       2063983.0     0.047039969
       2067824.0     0.053849802
       2072109.0     0.062870279
       2076411.0     0.071875515
       2080732.0     0.081458423
       2085070.0     0.091658021
       2088991.0      0.10172497
       2093364.0      0.11088341
       2097755.0      0.12011545
       2102165.0      0.13107744
       2106149.0      0.14281798
       2110595.0      0.15445744
       2115059.0      0.16894151
       2119542.0      0.18380024
       2124044.0      0.19712632
       2128112.0      0.20825417
       2132650.0      0.21969402
       2137208.0      0.22459593
       2141786.0      0.22779376
       2146383.0      0.23095257
       2150537.0      0.23495639
       2155172.0      0.23915409
       2159827.0      0.24377762
       2164502.0      0.24858679
       2168726.0      0.25273873
       2173440.0      0.25614617
       2178174.0      0.26035632
       2182929.0      0.26319860
       2187705.0      0.26452761
       2192021.0      0.26607184
       2196836.0      0.27239791
       2201673.0      0.27828773
       2206531.0      0.28181036
       2210921.0      0.28229454
       2215820.0      0.28287961
       2220741.0      0.28275161
       2225684.0      0.28254108
       2230649.0      0.28180776
       2235136.0      0.28240385
       2240143.0      0.28306731
       2245172.0      0.29088291
       2250225.0      0.30294806
       2255299.0      0.31424866
       2259887.0      0.32052182
       2265005.0      0.32722115
       2270147.0      0.32938013
       2275312.0      0.32726951
       2279981.0      0.32494471
       2285191.0      0.32511827
       2290426.0      0.32532485
       2295684.0      0.32977661
       2300966.0      0.34129636
       2305741.0      0.35331535
       2311070.0      0.36235567
       2316423.0      0.37059356
       2321801.0      0.37776036
       2327205.0      0.38095818
       2332089.0      0.38396404
       2337540.0      0.38603155
       2343017.0      0.38751167
       2348520.0      0.38930181
       2353494.0      0.39427358
       2359046.0      0.39983192
       2364625.0      0.40199858
       2370229.0      0.40072183
       2375861.0      0.39888627
       2380952.0      0.40015053
       2386634.0      0.40201779
       2392344.0      0.40658354
       2398081.0      0.41674719
       2403846.0      0.42682047
       2409058.0      0.43533823
       2414875.0      0.44379288
       2420721.0      0.44917031
       2426595.0      0.44308152
       2431906.0      0.43686916
       2437835.0      0.43131678
       2443792.0      0.42609923
       2449779.0      0.42163811
       2455795.0      0.42818323
       2461235.0      0.43484133
       2467308.0      0.44388016
       2473410.0      0.45530821
       2479543.0      0.46663081
       2485707.0      0.46678664
       2491280.0      0.46519365
       2497502.0      0.46273894
       2503755.0      0.45821056
       2510040.0      0.45376737
       2515723.0      0.45647030
       2522068.0      0.46214364
       2528445.0      0.46785035
       2534854.0      0.47382192
       2541296.0      0.47980884
       2547121.0      0.48379716
       2553626.0      0.48687561
       2560163.0      0.49012372
       2566735.0      0.49763113
       2573340.0      0.50532349
       2579313.0      0.51288687
       2585983.0      0.52086006
       2592688.0      0.52863175
       2599428.0      0.52646233
       2605523.0      0.52226421
       2612330.0      0.51733780
       2619172.0      0.51033253
       2626050.0      0.50352194
       2632964.0      0.50898375
       2639218.0      0.51859426
       2646202.0      0.52999135
       2653223.0      0.55176388
       2660281.0      0.56900009
       2666666.0      0.57469780
       2673796.0      0.57030456
       2680965.0      0.55909436
       2688172.0      0.54179082
       2695417.0      0.52888165
       2701972.0      0.52541079
       2709292.0      0.52233061
       2716653.0      0.53256894
       2724053.0      0.54235324
       2731494.0      0.54814174
       2738225.0      0.55603543
       2745744.0      0.55794771
       2753303.0      0.55343999
       2760905.0      0.54380845
       2767783.0      0.53685708
       2775464.0      0.53433431
       2783189.0      0.53470013
       2790957.0      0.52580516
       2798768.0      0.51953874
       2805836.0      0.51104292
       2813731.0      0.49639100
       2821670.0      0.47719601
       2829654.0      0.46279663
       2837684.0      0.43172620
       2844950.0      0.42877097
       2853067.0      0.45700929
       2861230.0      0.42073149
       2869440.0      0.42427379
       2876869.0      0.40494548
       2885170.0      0.37487795
       2893518.0      0.33422937
       2901915.0      0.29403644
       2910360.0      0.24818269
       2918004.0      0.20924606
       2926543.0      0.17447241
       2935133.0      0.14173093
       2943773.0     0.082347357
       2952465.0     0.037585635
       2960331.0     0.020578246
       2969121.0     0.012360890
       2977963.0    0.0076968222
       2986857.0    0.0049800943
       2994908.0    0.0040451938
       3003905.0    0.0034104584
       3012955.0    0.0030934764
       3022061.0    0.0029325656
       3031221.0    0.0028136495
       3039513.0    0.0026858281
       3048780.0    0.0025496274
       3058103.0    0.0023496818
       3067484.0    0.0021360312
       3076923.0    0.0019289327
       3085467.0    0.0016847109
       3095017.0    0.0015047379
       3104625.0    0.0013444018
       3114294.0    0.0011950418
       3123048.0    0.0010524602
       3132832.0   0.00091275433
       3142677.0   0.00077113872
       3152585.0   0.00064602484
       3162555.0   0.00053777288
       3171582.0   0.00044439516
       3181673.0   0.00037358832
       3191828.0   0.00032803453
       3202049.0   0.00029005981
       3211303.0   0.00026630548
       3221649.0   0.00024715127
       3232062.0   0.00023177589
       3242542.0   0.00021230317
       3253090.0   0.00019304970
       3262642.0   0.00017271684
       3273322.0   0.00015661258
       3284072.0   0.00014019100
       3294892.0   0.00012518020
       3305785.0   0.00011591705
       3315649.0   0.00010741899
       3326679.0   0.00010034984
       3337783.0   9.4979626e-05
       3348961.0   8.9452325e-05
       3359086.0   8.3201386e-05
       3370407.0   7.6869827e-05
       3381805.0   7.0015034e-05
       3393281.0   6.4173090e-05
       3404834.0   6.0035072e-05
       3415300.0   5.6262748e-05
       3427004.0   5.3523801e-05
       3438789.0   5.1337876e-05
       3450655.0   4.8621295e-05
       3462603.0   4.4706623e-05
       3473428.0   4.0422942e-05
       3485535.0   3.6312885e-05
       3497726.0   3.2471044e-05
       3510003.0   2.9492504e-05
       3521126.0   2.8152562e-05
       3533568.0   2.7488169e-05
       3546099.0   2.7163281e-05
       3558718.0   2.6086083e-05
       3571428.0   2.4846769e-05
       3582945.0   2.2370892e-05
       3595828.0   1.9449823e-05
       3608805.0   1.7243981e-05
       3621876.0   1.5769617e-05
       3635041.0   1.4403672e-05
       3646973.0   1.4101565e-05
       3660322.0   1.3802122e-05
       3673769.0   1.3751601e-05
       3687315.0   1.3545847e-05
       3699593.0   1.3332215e-05
       3713330.0   1.2374418e-05
       3727171.0   1.1275880e-05
       3741114.0   1.0094967e-05
